Energy (eV)  Intensity
270.0000 121.5330
270.0200 119.7673
270.0400 125.1501
270.0600 153.9438
270.0800 141.7058
270.1000 109.7116
270.1200 118.7648
270.1400 141.4904
270.1600 123.3330
270.1800 163.4290
270.2000 130.2711
270.2200 144.4529
270.2400 155.3251
270.2600 112.2636
270.2800 140.0500
270.3000 135.7801
270.3200 169.2620
270.3400 139.2583
270.3600 151.7362
270.3800 143.5252
270.4000 146.1656
270.4200 101.9062
270.4400 128.8590
270.4600 140.2299
270.4800 187.4934
270.5000 153.0733
270.5200 131.1666
270.5400 117.9812
270.5600 131.1175
270.5800 167.5553
270.6000 128.3019
270.6200 133.8170
270.6400 145.2780
270.6600 191.2507
270.6800 129.7764
270.7000 127.1266
270.7200 121.9073
270.7400 160.6184
270.7600 140.9943
270.7800 152.0099
270.8000 129.6162
270.8200 181.0923
270.8400 129.3529
270.8600 122.7350
270.8800 134.9499
270.9000 137.9663
270.9200 116.4848
270.9400 160.2264
270.9600 105.9007
270.9800 134.0268
271.0000 164.4855
271.0200 121.2304
271.0400 133.6693
271.0600 146.1389
271.0800 133.2410
271.1000 118.2375
271.1200 140.8408
271.1400 153.2868
271.1600 129.4545
271.1800 148.9483
271.2000 154.7504
271.2200 126.1870
271.2400 142.7051
271.2600 122.3969
271.2800 170.3896
271.3000 134.9014
271.3200 140.2018
271.3400 108.3576
271.3600 158.8191
271.3800 122.1553
271.4000 142.5566
271.4200 166.1074
271.4400 130.6182
271.4600 129.2051
271.4800 187.3199
271.5000 135.0422
271.5200 162.7484
271.5400 145.4601
271.5600 147.3515
271.5800 154.0120
271.6000 157.1412
271.6200 151.1085
271.6400 144.2738
271.6600 127.8038
271.6800 113.8639
271.7000 144.9177
271.7200 120.6993
271.7400 136.1138
271.7600 125.7943
271.7800 123.5206
271.8000 133.3545
271.8200 111.2831
271.8400 151.9670
271.8600 103.5261
271.8800 134.2262
271.9000 126.5348
271.9200 149.3165
271.9400 143.5909
271.9600 116.9257
271.9800 111.9546
272.0000 132.6260
272.0200 127.3698
272.0400 132.7702
272.0600 130.5880
272.0800 139.5440
272.1000 157.8404
272.1200 141.7699
272.1400 134.6530
272.1600 132.7078
272.1800 127.6091
272.2000 151.9507
272.2200 123.1016
272.2400 152.5295
272.2600 170.8368
272.2800 127.8361
272.3000 122.9710
272.3200 117.7035
272.3400 149.1492
272.3600 135.7424
272.3800 165.8291
272.4000 155.5732
272.4200 149.2551
272.4400 132.7422
272.4600 114.8969
272.4800 142.7403
272.5000 127.9296
272.5200 108.6567
272.5400 147.2843
272.5600 163.6056
272.5800 126.1703
272.6000 108.2573
272.6200 101.9604
272.6400 141.0461
272.6600 144.5243
272.6800 125.4140
272.7000 178.2807
272.7200 102.4640
272.7400 129.8115
272.7600 131.7795
272.7800 134.9973
272.8000 146.1540
272.8200 148.0229
272.8400 122.7136
272.8600 118.9220
272.8800 142.0222
272.9000 171.3568
272.9200 167.6286
272.9400 139.3676
272.9600 128.9097
272.9800 133.5242
273.0000 123.6543
273.0200 143.9561
273.0400 120.6286
273.0600 143.9213
273.0800 114.8679
273.1000 182.5499
273.1200 110.1737
273.1400 139.3048
273.1600 125.2636
273.1800 145.7783
273.2000 145.7923
273.2200 112.3902
273.2400 161.9024
273.2600 129.3719
273.2800 115.4869
273.3000 186.8983
273.3200 127.2027
273.3400 152.6027
273.3600 119.6992
273.3800 105.3451
273.4000 137.6707
273.4200 153.9847
273.4400 147.2107
273.4600 128.4573
273.4800 162.3194
273.5000 134.6582
273.5200 120.1958
273.5400 171.2565
273.5600 155.7888
273.5800 117.7768
273.6000 116.4659
273.6200 122.2089
273.6400 111.9740
273.6600 157.7432
273.6800 70.5540
273.7000 88.1948
273.7200 124.7378
273.7400 113.8089
273.7600 147.0749
273.7800 123.0243
273.8000 151.7342
273.8200 155.5702
273.8400 158.6882
273.8600 96.1429
273.8800 133.8993
273.9000 194.8168
273.9200 117.2334
273.9400 156.8397
273.9600 138.8046
273.9800 122.4754
274.0000 168.4066
274.0200 120.0181
274.0400 142.2070
274.0600 132.5989
274.0800 84.7139
274.1000 133.1289
274.1200 170.2557
274.1400 147.5894
274.1600 151.7081
274.1800 117.0538
274.2000 117.5581
274.2200 99.7022
274.2400 144.2928
274.2600 150.4265
274.2800 140.7160
274.3000 151.4931
274.3200 151.4513
274.3400 126.4828
274.3600 153.6306
274.3800 168.5281
274.4000 148.5620
274.4200 160.0279
274.4400 143.1280
274.4600 174.9980
274.4800 125.9341
274.5000 134.8237
274.5200 166.4724
274.5400 114.5285
274.5600 113.5289
274.5800 141.3916
274.6000 108.0655
274.6200 128.8197
274.6400 153.7940
274.6600 148.4854
274.6800 106.0658
274.7000 110.8317
274.7200 120.5761
274.7400 119.7393
274.7600 153.5676
274.7800 116.1347
274.8000 138.9986
274.8200 114.6386
274.8400 117.3067
274.8600 143.2712
274.8800 121.1434
274.9000 149.8899
274.9200 165.0913
274.9400 145.3605
274.9600 186.5956
274.9800 167.2127
275.0000 162.9677
275.0200 130.7346
275.0400 131.2219
275.0600 122.2682
275.0800 176.2776
275.1000 128.8027
275.1200 90.2517
275.1400 147.5994
275.1600 141.5925
275.1800 177.7781
275.2000 160.3786
275.2200 197.1542
275.2400 149.0444
275.2600 134.4892
275.2800 164.2225
275.3000 111.2355
275.3200 133.0622
275.3400 148.0135
275.3600 123.4926
275.3800 119.1799
275.4000 130.9034
275.4200 169.0928
275.4400 151.1987
275.4600 153.0849
275.4800 140.3056
275.5000 179.1163
275.5200 139.8677
275.5400 151.0062
275.5600 149.5926
275.5800 143.4938
275.6000 140.2117
275.6200 171.3544
275.6400 123.0201
275.6600 126.1532
275.6800 106.8500
275.7000 120.1394
275.7200 107.5932
275.7400 121.9360
275.7600 164.7163
275.7800 111.6317
275.8000 180.6934
275.8200 125.8296
275.8400 135.7409
275.8600 141.5687
275.8800 133.9752
275.9000 140.9940
275.9200 115.0539
275.9400 124.6983
275.9600 167.6128
275.9800 139.8233
276.0000 140.4951
276.0200 143.6944
276.0400 162.9182
276.0600 122.0483
276.0800 140.6277
276.1000 151.3816
276.1200 137.4414
276.1400 165.0417
276.1600 148.1353
276.1800 184.9190
276.2000 142.2120
276.2200 161.8947
276.2400 138.2186
276.2600 160.4825
276.2800 127.1468
276.3000 127.9023
276.3200 136.1894
276.3400 147.0167
276.3600 132.5728
276.3800 135.4728
276.4000 157.7762
276.4200 152.4217
276.4400 139.3636
276.4600 144.8741
276.4800 128.4858
276.5000 169.1914
276.5200 127.2338
276.5400 146.2835
276.5600 127.5180
276.5800 183.9919
276.6000 168.3616
276.6200 158.1901
276.6400 131.8777
276.6600 122.6420
276.6800 132.2508
276.7000 120.7089
276.7200 180.6109
276.7400 116.3237
276.7600 175.7885
276.7800 122.7713
276.8000 141.4110
276.8200 118.9677
276.8400 185.0971
276.8600 155.5288
276.8800 151.8454
276.9000 130.6592
276.9200 150.1686
276.9400 133.5521
276.9600 155.7027
276.9800 128.1429
277.0000 144.9459
277.0200 160.7070
277.0400 121.0753
277.0600 166.2568
277.0800 125.8280
277.1000 143.9324
277.1200 102.1744
277.1400 165.4280
277.1600 175.5022
277.1800 144.7574
277.2000 150.9240
277.2200 141.6301
277.2400 160.6129
277.2600 137.6021
277.2800 156.8717
277.3000 141.7558
277.3200 145.5895
277.3400 130.1895
277.3600 166.6830
277.3800 150.3171
277.4000 116.5471
277.4200 153.0833
277.4400 145.1916
277.4600 154.0415
277.4800 118.8897
277.5000 120.4897
277.5200 161.7267
277.5400 161.9144
277.5600 109.9964
277.5800 129.6586
277.6000 184.9838
277.6200 165.8326
277.6400 162.4733
277.6600 140.2491
277.6800 149.1634
277.7000 162.8331
277.7200 181.0153
277.7400 154.5584
277.7600 129.8309
277.7800 163.4263
277.8000 150.9169
277.8200 146.6160
277.8400 174.2240
277.8600 133.8826
277.8800 137.1162
277.9000 166.8518
277.9200 141.2281
277.9400 158.1100
277.9600 138.6122
277.9800 162.1005
278.0000 154.3171
278.0200 169.9466
278.0400 153.6845
278.0600 148.1897
278.0800 181.6915
278.1000 154.0361
278.1200 166.3104
278.1400 126.2649
278.1600 167.1084
278.1800 130.7053
278.2000 129.6749
278.2200 142.2491
278.2400 137.5575
278.2600 145.6203
278.2800 127.5506
278.3000 146.3008
278.3200 157.3803
278.3400 161.3675
278.3600 118.5248
278.3800 149.4017
278.4000 186.7000
278.4200 153.3963
278.4400 149.2727
278.4600 167.7737
278.4800 129.9282
278.5000 150.4901
278.5200 131.4461
278.5400 93.7425
278.5600 136.3058
278.5800 149.0610
278.6000 165.8614
278.6200 156.9165
278.6400 156.8196
278.6600 148.7789
278.6800 121.1938
278.7000 157.5952
278.7200 118.9757
278.7400 125.4006
278.7600 169.7747
278.7800 118.9658
278.8000 146.9641
278.8200 170.3222
278.8400 132.5921
278.8600 146.4585
278.8800 158.3867
278.9000 151.5320
278.9200 128.7112
278.9400 178.0029
278.9600 100.1295
278.9800 140.5672
279.0000 127.5291
279.0200 153.2042
279.0400 130.6326
279.0600 130.4437
279.0800 135.2702
279.1000 133.8148
279.1200 146.1667
279.1400 145.8612
279.1600 157.3981
279.1800 165.0253
279.2000 162.2352
279.2200 139.3720
279.2400 98.4957
279.2600 133.4890
279.2800 101.1075
279.3000 161.1631
279.3200 170.1846
279.3400 141.8654
279.3600 158.3802
279.3800 131.6724
279.4000 164.3538
279.4200 172.7839
279.4400 164.8103
279.4600 163.8211
279.4800 116.3181
279.5000 134.9610
279.5200 129.5793
279.5400 125.8639
279.5600 135.9116
279.5800 152.6689
279.6000 167.2469
279.6200 150.6642
279.6400 169.9481
279.6600 131.2611
279.6800 180.4805
279.7000 139.0233
279.7200 115.1288
279.7400 146.0694
279.7600 115.9056
279.7800 168.9195
279.8000 140.6763
279.8200 146.4602
279.8400 128.1698
279.8600 126.7309
279.8800 174.8335
279.9000 142.6516
279.9200 123.0110
279.9400 171.1781
279.9600 149.5101
279.9800 99.9204
280.0000 132.1599
280.0200 149.9065
280.0400 157.2714
280.0600 173.2927
280.0800 159.0489
280.1000 149.2977
280.1200 145.6440
280.1400 121.5136
280.1600 152.8954
280.1800 156.8383
280.2000 180.3331
280.2200 146.0933
280.2400 160.5895
280.2600 147.6452
280.2800 117.3878
280.3000 133.1296
280.3200 163.5282
280.3400 162.3559
280.3600 109.6126
280.3800 149.2695
280.4000 144.5284
280.4200 115.6426
280.4400 156.0852
280.4600 154.4788
280.4800 143.6701
280.5000 161.0150
280.5200 152.5248
280.5400 142.6162
280.5600 113.1432
280.5800 78.5855
280.6000 130.7831
280.6200 104.4081
280.6400 149.4784
280.6600 147.0742
280.6800 149.3213
280.7000 109.1127
280.7200 168.3259
280.7400 112.8762
280.7600 91.5759
280.7800 168.0312
280.8000 151.4337
280.8200 153.3798
280.8400 126.7695
280.8600 145.0954
280.8800 143.7616
280.9000 153.6160
280.9200 146.9229
280.9400 146.6644
280.9600 156.9978
280.9800 120.4115
281.0000 112.2361
281.0200 188.9606
281.0400 124.7750
281.0600 136.8078
281.0800 163.3448
281.1000 151.5659
281.1200 144.5689
281.1400 117.9376
281.1600 167.3041
281.1800 145.7175
281.2000 160.6690
281.2200 155.8503
281.2400 158.4893
281.2600 177.8197
281.2800 185.8596
281.3000 155.8180
281.3200 163.2329
281.3400 143.7959
281.3600 175.2571
281.3800 133.9210
281.4000 160.2674
281.4200 141.7510
281.4400 150.2462
281.4600 110.9056
281.4800 184.2527
281.5000 169.6108
281.5200 158.1686
281.5400 161.4415
281.5600 160.0138
281.5800 145.9749
281.6000 140.8072
281.6200 150.8685
281.6400 149.6779
281.6600 147.7658
281.6800 118.9007
281.7000 109.7136
281.7200 136.8955
281.7400 115.5578
281.7600 136.1913
281.7800 133.0168
281.8000 140.6011
281.8200 125.3310
281.8400 136.3817
281.8600 179.0389
281.8800 119.1798
281.9000 109.7343
281.9200 143.1557
281.9400 149.6120
281.9600 123.4449
281.9800 183.5394
282.0000 167.3700
282.0200 130.1221
282.0400 177.1951
282.0600 154.1597
282.0800 134.9420
282.1000 134.5465
282.1200 155.0456
282.1400 138.9604
282.1600 158.9262
282.1800 161.7298
282.2000 158.1218
282.2200 97.1427
282.2400 162.2953
282.2600 159.5857
282.2800 168.0052
282.3000 120.4760
282.3200 147.4028
282.3400 161.7523
282.3600 152.3430
282.3800 149.7460
282.4000 131.3907
282.4200 148.5258
282.4400 147.2365
282.4600 149.5372
282.4800 158.5217
282.5000 139.2000
282.5200 136.2140
282.5400 138.6496
282.5600 148.6598
282.5800 124.0473
282.6000 167.2049
282.6200 175.6338
282.6400 127.3963
282.6600 132.6759
282.6800 149.7214
282.7000 129.8793
282.7200 140.1776
282.7400 140.4931
282.7600 135.3309
282.7800 153.4929
282.8000 135.4558
282.8200 116.3429
282.8400 148.6815
282.8600 158.0677
282.8800 181.6854
282.9000 123.6360
282.9200 154.4361
282.9400 144.5839
282.9600 143.0110
282.9800 152.2921
283.0000 118.2685
283.0200 153.3592
283.0400 182.4891
283.0600 131.2611
283.0800 167.6977
283.1000 160.7887
283.1200 160.1353
283.1400 187.8192
283.1600 187.1506
283.1800 159.8417
283.2000 134.3440
283.2200 164.1784
283.2400 158.3812
283.2600 170.8944
283.2800 145.8186
283.3000 181.7942
283.3200 188.7094
283.3400 192.3680
283.3600 159.2925
283.3800 152.1854
283.4000 152.1094
283.4200 138.0471
283.4400 166.8879
283.4600 195.0646
283.4800 175.7685
283.5000 220.5644
283.5200 152.8143
283.5400 230.8362
283.5600 183.9815
283.5800 160.9601
283.6000 193.9703
283.6200 185.3670
283.6400 227.6862
283.6600 221.5728
283.6800 215.8540
283.7000 198.4947
283.7200 225.7227
283.7400 210.0785
283.7600 203.6883
283.7800 219.0413
283.8000 180.3882
283.8200 184.9302
283.8400 197.8412
283.8600 208.9125
283.8800 218.3310
283.9000 225.7370
283.9200 208.7863
283.9400 232.2845
283.9600 211.7769
283.9800 224.8472
284.0000 222.2523
284.0200 239.3136
284.0400 194.0133
284.0600 226.2974
284.0800 230.1454
284.1000 235.2067
284.1200 239.7165
284.1400 244.4365
284.1600 257.2721
284.1800 239.1478
284.2000 259.6380
284.2200 250.6198
284.2400 255.0485
284.2600 299.6058
284.2800 307.0948
284.3000 269.9568
284.3200 299.3737
284.3400 259.9207
284.3600 252.6895
284.3800 312.9426
284.4000 307.7319
284.4200 264.1648
284.4400 314.8746
284.4600 314.2048
284.4800 277.4008
284.5000 292.5284
284.5200 318.7543
284.5400 335.0436
284.5600 287.7287
284.5800 334.0392
284.6000 293.5422
284.6200 351.1558
284.6400 371.2107
284.6600 342.3583
284.6800 338.4397
284.7000 383.7618
284.7200 376.0348
284.7400 369.8446
284.7600 410.3505
284.7800 375.5407
284.8000 342.4018
284.8200 383.2467
284.8400 405.1129
284.8600 351.2103
284.8800 392.6282
284.9000 422.2713
284.9200 419.4562
284.9400 441.6956
284.9600 449.9180
284.9800 403.2884
285.0000 454.4989
285.0200 444.6692
285.0400 428.8675
285.0600 492.7951
285.0800 486.4571
285.1000 496.8565
285.1200 479.8450
285.1400 493.9889
285.1600 489.7226
285.1800 513.8674
285.2000 524.4668
285.2200 515.5882
285.2400 512.2199
285.2600 534.0947
285.2800 608.1884
285.3000 563.3550
285.3200 540.7434
285.3400 555.4432
285.3600 540.8128
285.3800 559.1775
285.4000 585.3456
285.4200 617.1599
285.4400 618.2464
285.4600 606.4709
285.4800 611.2709
285.5000 648.0298
285.5200 621.0593
285.5400 651.8908
285.5600 631.5668
285.5800 667.5429
285.6000 649.5702
285.6200 681.9624
285.6400 662.7697
285.6600 714.5318
285.6800 742.4407
285.7000 682.9370
285.7200 694.2394
285.7400 743.9520
285.7600 738.8519
285.7800 759.6904
285.8000 777.2621
285.8200 742.0642
285.8400 779.3370
285.8600 765.8612
285.8800 810.1452
285.9000 817.7218
285.9200 818.3594
285.9400 825.6501
285.9600 832.1859
285.9800 824.1748
286.0000 851.5539
286.0200 837.1995
286.0400 866.2379
286.0600 839.3512
286.0800 882.2329
286.1000 919.3675
286.1200 935.1962
286.1400 919.7250
286.1600 898.0962
286.1800 920.0550
286.2000 914.3613
286.2200 906.3492
286.2400 925.2664
286.2600 969.7772
286.2800 960.7418
286.3000 943.3929
286.3200 992.8250
286.3400 969.4103
286.3600 1012.6389
286.3800 978.4215
286.4000 1018.1264
286.4200 1004.7660
286.4400 984.9648
286.4600 1033.4447
286.4800 1039.1477
286.5000 1048.8752
286.5200 1041.0447
286.5400 1054.2211
286.5600 1052.4106
286.5800 1079.7764
286.6000 1076.3616
286.6200 1059.3506
286.6400 1035.2780
286.6600 1067.1847
286.6800 1084.8228
286.7000 1128.6145
286.7200 1100.3566
286.7400 1088.3135
286.7600 1102.3815
286.7800 1097.9233
286.8000 1097.4781
286.8200 1096.0052
286.8400 1084.2227
286.8600 1120.7140
286.8800 1108.4363
286.9000 1147.9708
286.9200 1100.1261
286.9400 1127.0468
286.9600 1125.9233
286.9800 1119.8995
287.0000 1142.0907
287.0200 1138.8873
287.0400 1160.6907
287.0600 1166.8207
287.0800 1113.0714
287.1000 1151.9159
287.1200 1164.7560
287.1400 1087.7227
287.1600 1113.7163
287.1800 1143.7232
287.2000 1133.8100
287.2200 1160.3055
287.2400 1142.9540
287.2600 1149.0063
287.2800 1145.4695
287.3000 1147.5468
287.3200 1114.8511
287.3400 1154.2430
287.3600 1165.7611
287.3800 1134.7327
287.4000 1103.9931
287.4200 1138.4076
287.4400 1087.3963
287.4600 1126.6580
287.4800 1131.7733
287.5000 1148.7721
287.5200 1095.0883
287.5400 1109.8812
287.5600 1097.7089
287.5800 1094.2565
287.6000 1093.7550
287.6200 1106.2450
287.6400 1074.9074
287.6600 1106.1041
287.6800 1075.8193
287.7000 1086.9134
287.7200 1074.4495
287.7400 1086.8513
287.7600 1054.2131
287.7800 1061.8183
287.8000 1085.2249
287.8200 1037.4172
287.8400 1081.3003
287.8600 1047.2738
287.8800 1046.2098
287.9000 1004.1241
287.9200 1055.3802
287.9400 1021.8834
287.9600 1032.5378
287.9800 1001.6657
288.0000 1006.9447
288.0200 1023.7487
288.0400 993.2656
288.0600 970.2837
288.0800 994.9381
288.1000 947.4825
288.1200 946.2496
288.1400 957.3126
288.1600 956.1811
288.1800 955.0799
288.2000 885.7724
288.2200 924.2656
288.2400 868.8522
288.2600 909.4547
288.2800 897.8753
288.3000 919.0700
288.3200 863.9921
288.3400 914.8823
288.3600 897.7118
288.3800 852.5332
288.4000 838.4795
288.4200 834.4540
288.4400 823.0327
288.4600 812.4563
288.4800 775.4476
288.5000 819.6462
288.5200 809.8841
288.5400 784.0638
288.5600 777.3060
288.5800 744.4601
288.6000 771.7569
288.6200 751.7422
288.6400 715.9627
288.6600 769.0862
288.6800 714.5308
288.7000 698.9919
288.7200 696.4653
288.7400 694.3741
288.7600 685.3085
288.7800 690.5843
288.8000 686.2834
288.8200 696.2650
288.8400 640.9215
288.8600 640.5921
288.8800 654.3752
288.9000 630.0781
288.9200 611.6571
288.9400 594.8513
288.9600 645.9693
288.9800 620.6966
289.0000 565.8728
289.0200 584.1937
289.0400 603.0283
289.0600 552.2280
289.0800 558.0738
289.1000 521.3028
289.1200 569.5494
289.1400 511.4488
289.1600 525.7091
289.1800 525.7034
289.2000 520.3235
289.2200 488.0026
289.2400 539.6335
289.2600 485.0342
289.2800 487.5110
289.3000 476.8152
289.3200 452.9471
289.3400 458.4055
289.3600 428.1493
289.3800 454.5285
289.4000 438.5872
289.4200 441.7277
289.4400 389.2122
289.4600 463.4494
289.4800 434.7069
289.5000 424.5694
289.5200 402.5487
289.5400 403.3350
289.5600 401.8821
289.5800 401.0340
289.6000 407.9963
289.6200 386.0723
289.6400 380.9117
289.6600 391.1851
289.6800 409.3155
289.7000 336.0959
289.7200 350.4344
289.7400 383.3015
289.7600 372.9658
289.7800 358.5386
289.8000 317.4146
289.8200 358.8179
289.8400 310.8941
289.8600 351.2328
289.8800 299.2746
289.9000 283.3420
289.9200 316.5012
289.9400 276.5873
289.9600 318.2444
289.9800 282.6278
290.0000 297.0165
290.0200 277.5904
290.0400 286.2153
290.0600 330.2954
290.0800 277.3251
290.1000 258.5636
290.1200 300.0775
290.1400 254.4530
290.1600 288.6830
290.1800 242.5031
290.2000 271.5763
290.2200 273.8229
290.2400 250.9339
290.2600 241.3280
290.2800 240.6483
290.3000 263.5545
290.3200 231.5626
290.3400 234.2445
290.3600 193.2331
290.3800 266.9629
290.4000 241.9335
290.4200 218.3484
290.4400 206.9242
290.4600 228.6139
290.4800 216.0609
290.5000 188.5388
290.5200 228.0593
290.5400 210.0962
290.5600 213.6082
290.5800 203.2594
290.6000 201.9868
290.6200 201.8935
290.6400 207.2008
290.6600 196.1480
290.6800 191.0757
290.7000 195.2229
290.7200 215.6251
290.7400 220.7286
290.7600 195.6259
290.7800 201.8940
290.8000 193.0499
290.8200 181.5342
290.8400 185.8003
290.8600 171.4006
290.8800 199.7024
290.9000 192.8016
290.9200 188.1364
290.9400 169.4234
290.9600 185.4754
290.9800 180.2975
291.0000 174.1398
291.0200 147.5397
291.0400 189.6918
291.0600 143.4331
291.0800 152.4354
291.1000 138.5955
291.1200 160.1246
291.1400 181.7233
291.1600 175.0619
291.1800 159.3666
291.2000 144.2052
291.2200 197.4704
291.2400 144.3963
291.2600 153.4012
291.2800 172.1466
291.3000 148.7517
291.3200 145.0271
291.3400 144.2104
291.3600 186.2269
291.3800 202.4566
291.4000 185.2762
291.4200 176.8735
291.4400 191.7710
291.4600 142.3708
291.4800 170.2648
291.5000 169.9580
291.5200 128.3960
291.5400 128.2897
291.5600 173.6803
291.5800 125.4727
291.6000 139.2703
291.6200 174.7983
291.6400 165.2863
291.6600 187.2887
291.6800 164.6726
291.7000 181.5869
291.7200 114.0147
291.7400 163.4074
291.7600 150.7329
291.7800 170.8529
291.8000 177.7883
291.8200 165.1119
291.8400 167.5885
291.8600 164.2445
291.8800 146.3076
291.9000 130.3309
291.9200 151.0300
291.9400 182.9425
291.9600 161.0254
291.9800 166.8880
292.0000 123.1188
292.0200 148.5535
292.0400 152.0337
292.0600 150.1658
292.0800 149.2021
292.1000 179.9694
292.1200 155.6693
292.1400 172.8395
292.1600 134.9614
292.1800 125.2404
292.2000 156.0084
292.2200 154.9633
292.2400 150.6871
292.2600 139.1938
292.2800 152.3372
292.3000 144.5335
292.3200 102.0686
292.3400 91.8033
292.3600 136.7296
292.3800 110.6804
292.4000 166.1041
292.4200 142.0386
292.4400 171.7654
292.4600 138.2586
292.4800 174.0874
292.5000 155.1641
292.5200 157.2584
292.5400 163.3629
292.5600 168.4300
292.5800 141.9054
292.6000 150.7165
292.6200 150.3602
292.6400 179.4236
292.6600 167.6090
292.6800 150.7897
292.7000 131.4407
292.7200 127.1255
292.7400 154.0520
292.7600 156.5818
292.7800 169.5780
292.8000 132.3530
292.8200 184.5384
292.8400 157.6981
292.8600 169.6703
292.8800 123.7692
292.9000 133.3336
292.9200 152.6161
292.9400 116.9024
292.9600 156.8873
292.9800 148.8908
293.0000 143.3667
293.0200 115.8582
293.0400 167.1104
293.0600 150.8359
293.0800 138.8001
293.1000 152.0195
293.1200 109.9354
293.1400 128.8578
293.1600 129.4774
293.1800 171.3181
293.2000 166.9349
293.2200 161.4291
293.2400 197.6862
293.2600 156.8704
293.2800 161.6771
293.3000 137.3764
293.3200 123.9823
293.3400 161.8218
293.3600 136.4353
293.3800 156.2638
293.4000 172.4999
293.4200 168.0081
293.4400 118.9140
293.4600 161.0920
293.4800 180.8571
293.5000 163.8568
293.5200 204.8551
293.5400 189.1906
293.5600 139.3439
293.5800 167.5868
293.6000 170.6733
293.6200 152.1355
293.6400 163.8418
293.6600 176.3949
293.6800 119.0812
293.7000 130.3380
293.7200 170.4795
293.7400 142.0703
293.7600 151.4589
293.7800 146.1408
293.8000 177.9363
293.8200 131.8891
293.8400 148.9726
293.8600 140.0185
293.8800 149.3329
293.9000 166.5477
293.9200 161.2893
293.9400 150.1743
293.9600 141.6283
293.9800 123.5139
294.0000 145.4267
294.0200 147.6233
294.0400 136.6283
294.0600 152.9863
294.0800 139.2219
294.1000 151.6074
294.1200 127.9645
294.1400 127.3219
294.1600 131.9023
294.1800 172.8919
294.2000 123.0282
294.2200 164.5030
294.2400 153.0776
294.2600 126.2387
294.2800 151.5708
294.3000 153.9450
294.3200 120.4156
294.3400 185.1096
294.3600 161.6831
294.3800 114.2222
294.4000 156.6958
294.4200 164.0979
294.4400 140.7874
294.4600 160.6730
294.4800 126.8853
294.5000 169.3688
294.5200 153.3030
294.5400 173.7643
294.5600 131.1484
294.5800 108.3804
294.6000 152.0759
294.6200 154.4756
294.6400 141.4590
294.6600 183.2882
294.6800 211.7662
294.7000 130.1130
294.7200 120.9847
294.7400 131.6779
294.7600 136.7645
294.7800 172.7733
294.8000 131.1101
294.8200 137.2846
294.8400 160.1542
294.8600 141.3767
294.8800 152.3102
294.9000 168.7142
294.9200 150.4510
294.9400 186.5059
294.9600 133.1132
294.9800 146.5164
