Energy (eV)  Intensity
25.0000 957.4418
25.0200 1306.5554
25.0400 1156.0147
25.0600 1153.2735
25.0800 1555.4737
25.1000 1180.0196
25.1200 986.2055
25.1400 1681.0586
25.1600 953.5339
25.1800 1519.4404
25.2000 1069.6808
25.2200 1398.6319
25.2400 1299.4870
25.2600 1109.7238
25.2800 1359.0330
25.3000 1112.3843
25.3200 1234.7027
25.3400 1374.9712
25.3600 1262.2654
25.3800 1196.3461
25.4000 1181.5221
25.4200 1094.7571
25.4400 1283.5337
25.4600 1282.3447
25.4800 1225.6556
25.5000 1872.4557
25.5200 1143.4714
25.5400 2034.8820
25.5600 1408.6774
25.5800 1584.6525
25.6000 1192.9054
25.6200 1537.4502
25.6400 1266.0975
25.6600 1373.0563
25.6800 969.9611
25.7000 1293.7942
25.7200 1507.9185
25.7400 1366.6255
25.7600 1190.4672
25.7800 1069.5797
25.8000 941.2218
25.8200 1400.5584
25.8400 1256.0720
25.8600 1167.0855
25.8800 1249.2133
25.9000 1306.6728
25.9200 1190.4691
25.9400 1530.0858
25.9600 1238.5712
25.9800 1076.8154
26.0000 1264.2499
26.0200 1643.0649
26.0400 1105.7049
26.0600 1031.3180
26.0800 997.3416
26.1000 1476.4273
26.1200 1502.5090
26.1400 1359.9863
26.1600 1289.1048
26.1800 1687.7766
26.2000 1046.6211
26.2200 1760.8317
26.2400 1614.9442
26.2600 1356.2910
26.2800 1372.0586
26.3000 1449.5885
26.3200 1421.4798
26.3400 1146.1217
26.3600 1473.5455
26.3800 1178.8723
26.4000 1199.1158
26.4200 1584.9333
26.4400 1106.3476
26.4600 1544.3536
26.4800 1624.4360
26.5000 1373.0449
26.5200 1449.4373
26.5400 1377.6238
26.5600 1513.3021
26.5800 1435.6120
26.6000 1017.4229
26.6200 1327.9805
26.6400 1478.5249
26.6600 1364.8476
26.6800 1280.1817
26.7000 1510.1175
26.7200 1070.4007
26.7400 1488.4590
26.7600 1171.5179
26.7800 1470.6033
26.8000 1496.1889
26.8200 1126.7548
26.8400 1469.4220
26.8600 1256.8068
26.8800 1229.5985
26.9000 1291.4707
26.9200 1488.9464
26.9400 1350.4073
26.9600 1647.9465
26.9800 1508.1641
27.0000 1213.6977
27.0200 1291.0013
27.0400 1662.7753
27.0600 1520.1949
27.0800 1456.9623
27.1000 1219.2833
27.1200 1694.8226
27.1400 1677.5369
27.1600 1368.9539
27.1800 1479.4610
27.2000 1382.1936
27.2200 1354.5510
27.2400 1554.7380
27.2600 1352.8000
27.2800 1440.6303
27.3000 1372.9182
27.3200 1406.0682
27.3400 1568.3471
27.3600 1367.3667
27.3800 1083.1051
27.4000 1340.7325
27.4200 1374.4257
27.4400 1721.1561
27.4600 1263.7532
27.4800 1040.2603
27.5000 1123.3839
27.5200 1302.2261
27.5400 1414.3987
27.5600 1447.5940
27.5800 1273.3921
27.6000 1432.5843
27.6200 1248.3278
27.6400 1480.6013
27.6600 1604.3940
27.6800 1408.1267
27.7000 1646.9097
27.7200 1559.5501
27.7400 1622.4938
27.7600 1365.2763
27.7800 1381.7036
27.8000 1503.9064
27.8200 1615.1692
27.8400 1653.8182
27.8600 1534.4251
27.8800 1529.1186
27.9000 1289.6033
27.9200 1474.0262
27.9400 1910.1380
27.9600 1448.1858
27.9800 1354.6478
28.0000 1546.0989
28.0200 1645.5421
28.0400 1626.5079
28.0600 1575.4124
28.0800 1233.4863
28.1000 1781.4357
28.1200 1689.2975
28.1400 1428.1558
28.1600 1681.6383
28.1800 1727.2411
28.2000 1831.8067
28.2200 1168.7392
28.2400 1084.7023
28.2600 1427.6632
28.2800 1204.1531
28.3000 1367.8316
28.3200 1390.6133
28.3400 1351.1059
28.3600 1667.3156
28.3800 1880.6480
28.4000 1456.0692
28.4200 1617.4989
28.4400 1475.2498
28.4600 1349.3033
28.4800 1494.6597
28.5000 1446.3678
28.5200 1341.2337
28.5400 1397.6750
28.5600 1581.1662
28.5800 922.1660
28.6000 1291.4503
28.6200 1468.3501
28.6400 1236.5033
28.6600 1272.5159
28.6800 1674.7602
28.7000 1479.7536
28.7200 1556.9367
28.7400 1347.4404
28.7600 1226.9334
28.7800 1225.8158
28.8000 1741.1765
28.8200 1552.9468
28.8400 1246.9258
28.8600 1598.0288
28.8800 1377.9765
28.9000 1606.0343
28.9200 1646.7221
28.9400 1279.7484
28.9600 1513.7397
28.9800 1371.4375
29.0000 1297.5303
29.0200 1331.2402
29.0400 1422.6864
29.0600 1645.7089
29.0800 1435.7978
29.1000 1027.0571
29.1200 1145.8422
29.1400 1429.0350
29.1600 1533.6300
29.1800 1631.1083
29.2000 1162.3450
29.2200 1579.0076
29.2400 1389.7446
29.2600 1515.9149
29.2800 1926.3023
29.3000 1670.1549
29.3200 1471.4787
29.3400 1637.6661
29.3600 1303.2086
29.3800 1507.7302
29.4000 1433.3800
29.4200 1460.6664
29.4400 1552.8156
29.4600 1497.3388
29.4800 1545.3489
29.5000 1324.7731
29.5200 1289.3652
29.5400 1472.3990
29.5600 1402.6668
29.5800 1557.8690
29.6000 1544.1943
29.6200 1164.4498
29.6400 1713.6960
29.6600 1801.2421
29.6800 1638.5239
29.7000 1383.3435
29.7200 1272.7538
29.7400 1612.5384
29.7600 1307.8111
29.7800 1673.1922
29.8000 1219.3917
29.8200 1494.2767
29.8400 1750.5522
29.8600 1620.9955
29.8800 1746.1840
29.9000 1416.7209
29.9200 1537.0225
29.9400 1712.6638
29.9600 1606.7489
29.9800 1371.8705
30.0000 1134.0532
30.0200 1251.0655
30.0400 1487.1460
30.0600 1721.7462
30.0800 1553.0283
30.1000 1543.7677
30.1200 1542.9932
30.1400 1804.2507
30.1600 1370.4353
30.1800 1335.9184
30.2000 1675.2475
30.2200 1296.3952
30.2400 1273.9418
30.2600 1345.0225
30.2800 1708.1660
30.3000 1690.4569
30.3200 1578.4065
30.3400 1505.5441
30.3600 1544.7485
30.3800 1390.3238
30.4000 1851.4331
30.4200 1286.2140
30.4400 1761.9249
30.4600 1600.4030
30.4800 1650.3919
30.5000 1627.1832
30.5200 1324.3923
30.5400 1604.0736
30.5600 1843.3247
30.5800 1663.0421
30.6000 1633.5439
30.6200 1519.8048
30.6400 1601.5412
30.6600 1689.8863
30.6800 1649.3150
30.7000 1349.6483
30.7200 1913.2242
30.7400 1712.1353
30.7600 1506.8713
30.7800 1731.8721
30.8000 1878.8125
30.8200 1121.6569
30.8400 1392.7194
30.8600 1605.7790
30.8800 1345.2471
30.9000 1986.7334
30.9200 1367.5642
30.9400 1999.5801
30.9600 1867.4636
30.9800 1377.6760
31.0000 1876.4052
31.0200 1746.1027
31.0400 1535.5827
31.0600 1443.3028
31.0800 1645.8161
31.1000 1261.9294
31.1200 1694.8616
31.1400 1633.2009
31.1600 1546.6984
31.1800 1628.0873
31.2000 1519.9392
31.2200 1831.4940
31.2400 1317.9050
31.2600 1577.1888
31.2800 1650.6603
31.3000 1371.5976
31.3200 1471.9870
31.3400 1723.6646
31.3600 1819.5003
31.3800 1416.5573
31.4000 1506.2811
31.4200 1783.5942
31.4400 1383.9780
31.4600 1636.0137
31.4800 1686.0760
31.5000 1869.8322
31.5200 1817.2167
31.5400 1307.2267
31.5600 1948.6078
31.5800 1918.4621
31.6000 1835.0924
31.6200 1417.4805
31.6400 1612.5542
31.6600 1678.3978
31.6800 1699.2112
31.7000 1351.9977
31.7200 1656.5634
31.7400 1575.9234
31.7600 1925.7059
31.7800 1620.2857
31.8000 1648.6446
31.8200 1547.2908
31.8400 1433.4219
31.8600 1681.8091
31.8800 1727.0791
31.9000 1874.1794
31.9200 1490.4447
31.9400 1845.8040
31.9600 1338.3657
31.9800 1568.4357
32.0000 1610.1034
32.0200 1598.2838
32.0400 1425.0115
32.0600 1503.2344
32.0800 1733.5058
32.1000 1559.2338
32.1200 1841.9860
32.1400 1800.2516
32.1600 1421.2754
32.1800 1803.2866
32.2000 1459.0700
32.2200 1572.7275
32.2400 1415.5624
32.2600 1629.5374
32.2800 1636.8152
32.3000 1728.7861
32.3200 2164.3366
32.3400 1524.9877
32.3600 1602.7983
32.3800 1657.5344
32.4000 1632.0763
32.4200 1758.8600
32.4400 1647.0641
32.4600 1700.1443
32.4800 1390.3185
32.5000 1518.1618
32.5200 1404.1304
32.5400 1729.8311
32.5600 1545.6518
32.5800 1878.7810
32.6000 1568.6154
32.6200 1780.3600
32.6400 1665.7100
32.6600 1563.3690
32.6800 1502.4867
32.7000 1402.9837
32.7200 1780.5935
32.7400 1673.2676
32.7600 1415.0622
32.7800 1527.0593
32.8000 1930.0046
32.8200 1811.4740
32.8400 1863.5632
32.8600 1872.1160
32.8800 1795.1273
32.9000 1787.8159
32.9200 1415.1042
32.9400 1672.5734
32.9600 1563.9361
32.9800 1683.4039
33.0000 1669.3071
33.0200 1745.3608
33.0400 1966.0872
33.0600 1612.7340
33.0800 1853.5870
33.1000 1727.0310
33.1200 1823.5301
33.1400 1963.5343
33.1600 1503.0636
33.1800 1574.2927
33.2000 1986.1093
33.2200 1675.0650
33.2400 1888.4004
33.2600 1502.5465
33.2800 1858.6380
33.3000 1463.0705
33.3200 1675.8837
33.3400 1337.2891
33.3600 1899.5547
33.3800 1401.0621
33.4000 1756.1122
33.4200 1312.7800
33.4400 1858.1342
33.4600 1738.4707
33.4800 1583.8329
33.5000 1653.2762
33.5200 1457.5061
33.5400 1210.4425
33.5600 1846.0381
33.5800 1669.5362
33.6000 1733.6110
33.6200 1756.8542
33.6400 1786.5796
33.6600 1837.6643
33.6800 1685.6236
33.7000 1865.7700
33.7200 1679.3130
33.7400 1493.1605
33.7600 1620.7237
33.7800 1885.3945
33.8000 1777.6741
33.8200 2042.2200
33.8400 1836.9195
33.8600 1408.6988
33.8800 1639.4505
33.9000 2067.0046
33.9200 1741.8660
33.9400 1797.8144
33.9600 1790.9911
33.9800 1793.7064
34.0000 1989.5922
34.0200 1598.3030
34.0400 1702.9549
34.0600 1761.5241
34.0800 1888.8164
34.1000 1472.1948
34.1200 1576.5565
34.1400 1423.4660
34.1600 1731.3597
34.1800 1908.6461
34.2000 2081.0998
34.2200 1769.2062
34.2400 1921.0826
34.2600 1981.0797
34.2800 1900.6394
34.3000 1617.2158
34.3200 1582.0149
34.3400 1549.8050
34.3600 1470.7336
34.3800 1484.8781
34.4000 1958.8702
34.4200 1898.0241
34.4400 1557.1064
34.4600 2059.3210
34.4800 1750.0462
34.5000 1783.5873
34.5200 2137.8103
34.5400 1559.6366
34.5600 1934.4160
34.5800 1689.9819
34.6000 1634.8445
34.6200 1547.6989
34.6400 1814.3337
34.6600 1783.2864
34.6800 1717.4156
34.7000 1802.5307
34.7200 1729.4388
34.7400 1762.1416
34.7600 1647.9373
34.7800 1960.0810
34.8000 1328.5377
34.8200 1460.2938
34.8400 2063.2694
34.8600 1816.1835
34.8800 1539.6809
34.9000 1822.0531
34.9200 1528.3102
34.9400 2426.9918
34.9600 1895.6377
34.9800 1821.8222
35.0000 1586.9428
35.0200 1934.0363
35.0400 2029.6400
35.0600 1721.1850
35.0800 1877.8259
35.1000 2018.7004
35.1200 1808.1018
35.1400 1900.1467
35.1600 1772.2986
35.1800 1432.9909
35.2000 1877.7272
35.2200 1865.7497
35.2400 2156.8043
35.2600 2021.2553
35.2800 1616.3827
35.3000 1862.1965
35.3200 1969.5620
35.3400 2183.8123
35.3600 2189.3268
35.3800 1923.1930
35.4000 1843.7538
35.4200 1980.3566
35.4400 2160.9830
35.4600 2335.2416
35.4800 1665.1872
35.5000 2077.4184
35.5200 2278.5256
35.5400 1672.3269
35.5600 1769.0708
35.5800 2179.6878
35.6000 1734.3365
35.6200 2114.6122
35.6400 1978.0160
35.6600 2256.8476
35.6800 1893.1588
35.7000 1997.1854
35.7200 2245.0479
35.7400 1952.6872
35.7600 2082.2529
35.7800 2015.0606
35.8000 2044.7876
35.8200 2336.8540
35.8400 2566.6332
35.8600 1964.5256
35.8800 2339.7973
35.9000 2328.5805
35.9200 2546.2817
35.9400 2535.1256
35.9600 2363.6658
35.9800 2664.3677
36.0000 2564.9912
36.0200 2427.1085
36.0400 2430.9109
36.0600 2699.2105
36.0800 2342.7726
36.1000 2800.6629
36.1200 2734.6379
36.1400 2542.3664
36.1600 2798.3452
36.1800 3106.4066
36.2000 2792.3812
36.2200 3019.8369
36.2400 3395.2523
36.2600 3637.2283
36.2800 3761.7617
36.3000 3358.6459
36.3200 3622.8769
36.3400 4056.8492
36.3600 3631.1335
36.3800 3560.7761
36.4000 3809.8554
36.4200 3980.9401
36.4400 3962.4423
36.4600 3803.4921
36.4800 4150.0052
36.5000 4350.6781
36.5200 4485.2710
36.5400 4691.0742
36.5600 4848.4520
36.5800 4706.8818
36.6000 4614.7878
36.6200 4933.0701
36.6400 5145.1096
36.6600 5177.6046
36.6800 5586.8673
36.7000 5755.1528
36.7200 5650.5572
36.7400 5743.7508
36.7600 6416.0133
36.7800 6152.8884
36.8000 6280.3052
36.8200 5702.0854
36.8400 6625.7070
36.8600 6735.9169
36.8800 6786.8572
36.9000 6562.6106
36.9200 6682.1312
36.9400 7293.7160
36.9600 7460.2122
36.9800 7692.5195
37.0000 8016.2444
37.0200 8186.9555
37.0400 8333.7367
37.0600 8231.2429
37.0800 8722.7981
37.1000 8720.4878
37.1200 8683.0618
37.1400 8846.2819
37.1600 8918.0580
37.1800 9071.2595
37.2000 9333.3521
37.2200 9760.2632
37.2400 9670.1018
37.2600 9510.2742
37.2800 9859.5847
37.3000 10398.5424
37.3200 10152.3330
37.3400 10542.6886
37.3600 10502.0633
37.3800 10734.3838
37.4000 10694.9244
37.4200 10744.2925
37.4400 11053.2208
37.4600 10936.5194
37.4800 11265.2681
37.5000 11633.0204
37.5200 11409.8166
37.5400 11332.6088
37.5600 11491.3072
37.5800 11372.0183
37.6000 11675.6039
37.6200 11860.4126
37.6400 11696.9838
37.6600 11911.6104
37.6800 12225.5868
37.7000 11756.3179
37.7200 11922.1368
37.7400 11941.7302
37.7600 11848.9424
37.7800 11638.7464
37.8000 11969.4867
37.8200 11964.0974
37.8400 12108.4915
37.8600 12089.5758
37.8800 11651.2035
37.9000 11869.1891
37.9200 11852.6499
37.9400 11973.6335
37.9600 11534.5205
37.9800 11541.6514
38.0000 11788.8220
38.0200 11567.4842
38.0400 11707.4442
38.0600 11550.6707
38.0800 11547.0416
38.1000 11257.3667
38.1200 11335.5404
38.1400 11715.7619
38.1600 11346.4381
38.1800 10868.0558
38.2000 10844.4210
38.2200 10709.3908
38.2400 10344.2715
38.2600 10334.2239
38.2800 10239.7354
38.3000 10204.1864
38.3200 10348.4935
38.3400 9734.6910
38.3600 9920.9919
38.3800 9691.7969
38.4000 9650.9756
38.4200 9557.1722
38.4400 9899.3982
38.4600 8788.3467
38.4800 8981.9150
38.5000 9152.4729
38.5200 8681.7950
38.5400 8487.4179
38.5600 8837.6400
38.5800 8868.1656
38.6000 8171.5245
38.6200 8291.8967
38.6400 8066.5817
38.6600 7834.1400
38.6800 7826.0421
38.7000 7555.4343
38.7200 7842.0849
38.7400 7821.2790
38.7600 7380.2316
38.7800 7669.3175
38.8000 6947.8395
38.8200 6811.1517
38.8400 7507.6660
38.8600 6752.4034
38.8800 7220.2827
38.9000 6836.5822
38.9200 6482.9624
38.9400 6464.7296
38.9600 6744.2165
38.9800 6384.3362
39.0000 7007.7974
39.0200 6267.8277
39.0400 6620.3686
39.0600 6048.8476
39.0800 6184.5892
39.1000 6630.8898
39.1200 5956.2243
39.1400 5681.2127
39.1600 6224.3629
39.1800 6528.1595
39.2000 5969.6661
39.2200 6118.5976
39.2400 6057.4310
39.2600 5892.7971
39.2800 6553.9130
39.3000 6364.4833
39.3200 6138.7916
39.3400 5765.4096
39.3600 6015.5056
39.3800 6559.4932
39.4000 6322.6090
39.4200 6221.7275
39.4400 6042.7545
39.4600 6888.6547
39.4800 6860.3075
39.5000 6205.3222
39.5200 6505.7059
39.5400 6723.8955
39.5600 6653.2017
39.5800 7074.2512
39.6000 6856.1463
39.6200 6478.9393
39.6400 6873.4036
39.6600 6552.2337
39.6800 7055.8117
39.7000 7642.3601
39.7200 7185.4937
39.7400 7429.1830
39.7600 7063.9433
39.7800 7562.0096
39.8000 7555.6469
39.8200 7517.8772
39.8400 7671.3813
39.8600 7643.2591
39.8800 8074.1889
39.9000 7741.0011
39.9200 8253.0991
39.9400 8220.0645
39.9600 7920.5331
39.9800 8389.3369
40.0000 8542.4370
40.0200 8331.3441
40.0400 8674.3517
40.0600 8376.2957
40.0800 8752.0426
40.1000 8817.2526
40.1200 8471.0098
40.1400 8604.5561
40.1600 8673.9294
40.1800 8769.4529
40.2000 8914.4458
40.2200 8914.7223
40.2400 9108.5382
40.2600 9212.5303
40.2800 9069.7027
40.3000 8836.6195
40.3200 8932.4833
40.3400 9391.9896
40.3600 9236.2742
40.3800 9149.7045
40.4000 9144.4219
40.4200 9115.6976
40.4400 9544.4740
40.4600 9035.9694
40.4800 8830.5471
40.5000 9256.0680
40.5200 9310.8512
40.5400 8677.4684
40.5600 8716.2851
40.5800 8573.9450
40.6000 8714.8235
40.6200 8854.0122
40.6400 8830.8802
40.6600 9072.1317
40.6800 8610.6387
40.7000 8701.8640
40.7200 8643.8086
40.7400 7858.2427
40.7600 8380.8757
40.7800 8703.0090
40.8000 8207.4353
40.8200 8222.9377
40.8400 8148.3673
40.8600 7715.7778
40.8800 7871.5965
40.9000 7886.1689
40.9200 7775.8902
40.9400 7638.4127
40.9600 7689.6094
40.9800 7323.8725
41.0000 7572.1162
41.0200 7188.7553
41.0400 7394.6805
41.0600 6880.7848
41.0800 6998.3148
41.1000 6783.3118
41.1200 6946.9675
41.1400 6714.3766
41.1600 6347.7789
41.1800 6393.6209
41.2000 6366.9628
41.2200 6354.5661
41.2400 6072.6362
41.2600 6065.9436
41.2800 5862.7164
41.3000 5479.9578
41.3200 5362.5828
41.3400 5409.8692
41.3600 5528.8378
41.3800 5445.6522
41.4000 5498.9260
41.4200 4710.6781
41.4400 5282.2293
41.4600 4813.5420
41.4800 4764.0069
41.5000 4546.1059
41.5200 4549.1619
41.5400 4961.9302
41.5600 4752.5476
41.5800 4022.3306
41.6000 3909.4136
41.6200 4283.9903
41.6400 4016.6386
41.6600 4173.7804
41.6800 3967.6197
41.7000 3697.1933
41.7200 4149.5992
41.7400 3909.2332
41.7600 3748.1296
41.7800 3695.1759
41.8000 3668.1499
41.8200 3331.1459
41.8400 3622.2242
41.8600 3173.3358
41.8800 3454.1553
41.9000 3084.0117
41.9200 3043.1639
41.9400 3264.8828
41.9600 3098.1454
41.9800 2763.8227
42.0000 2929.7314
42.0200 3093.9904
42.0400 2851.4966
42.0600 3056.2332
42.0800 3145.1585
42.1000 3334.7418
42.1200 2541.0591
42.1400 2701.0776
42.1600 2481.8034
42.1800 2570.1697
42.2000 3149.1377
42.2200 2475.3983
42.2400 2989.9864
42.2600 2363.6068
42.2800 2561.2893
42.3000 2449.5902
42.3200 2951.2473
42.3400 2288.6363
42.3600 2580.4369
42.3800 2542.0196
42.4000 2631.9654
42.4200 2302.1979
42.4400 2596.5787
42.4600 2113.0247
42.4800 2458.7394
42.5000 2448.6281
42.5200 1913.9407
42.5400 2307.6745
42.5600 2014.9000
42.5800 2145.1941
42.6000 2093.5418
42.6200 2288.8523
42.6400 2014.3660
42.6600 2299.1600
42.6800 2545.5244
42.7000 2284.2998
42.7200 2171.8399
42.7400 1998.2840
42.7600 2431.7109
42.7800 2453.9568
42.8000 2119.3650
42.8200 2025.8791
42.8400 2305.6245
42.8600 1895.8309
42.8800 2450.7134
42.9000 2250.0774
42.9200 2191.8295
42.9400 2105.3031
42.9600 2225.9395
42.9800 2376.1271
43.0000 2263.8652
43.0200 2382.2374
43.0400 2114.4406
43.0600 2315.5825
43.0800 2242.0127
43.1000 2352.8614
43.1200 2482.4445
43.1400 2422.0646
43.1600 2107.2816
43.1800 2047.3282
43.2000 2107.2426
43.2200 2432.5737
43.2400 1905.9405
43.2600 2241.8904
43.2800 2116.0708
43.3000 2368.6972
43.3200 2296.5288
43.3400 2342.6705
43.3600 2320.7988
43.3800 2399.5660
43.4000 2496.0422
43.4200 2213.0112
43.4400 2206.0382
43.4600 1875.0733
43.4800 1986.0349
43.5000 2354.7088
43.5200 2250.3150
43.5400 2282.6425
43.5600 2471.7364
43.5800 2152.5317
43.6000 2167.0184
43.6200 2398.0769
43.6400 1927.7239
43.6600 1968.6605
43.6800 1855.2276
43.7000 2584.1774
43.7200 2064.5402
43.7400 2193.0960
43.7600 2002.3407
43.7800 2084.2261
43.8000 2063.8351
43.8200 2515.5583
43.8400 2407.3934
43.8600 2458.4047
43.8800 2418.9264
43.9000 2631.8918
43.9200 2367.1129
43.9400 2513.0007
43.9600 2455.7964
43.9800 2696.2045
44.0000 2317.2839
44.0200 2415.4990
44.0400 1705.2208
44.0600 2071.1667
44.0800 2071.5699
44.1000 2512.8690
44.1200 2050.4406
44.1400 2317.3505
44.1600 2081.5118
44.1800 2382.9563
44.2000 2170.3412
44.2200 2080.0668
44.2400 2384.0430
44.2600 2426.1146
44.2800 2508.4406
44.3000 2435.5070
44.3200 2623.3037
44.3400 2525.4291
44.3600 2282.9559
44.3800 2400.0216
44.4000 2449.4915
44.4200 2159.5878
44.4400 2259.7120
44.4600 2042.0971
44.4800 2706.2135
44.5000 2286.4833
44.5200 2308.2784
44.5400 2270.4785
44.5600 2299.1077
44.5800 2130.9388
44.6000 2294.3633
44.6200 2121.9639
44.6400 2400.1877
44.6600 1933.5084
44.6800 2098.1355
44.7000 1906.5377
44.7200 2265.5027
44.7400 2369.6427
44.7600 2198.7434
44.7800 2500.9977
44.8000 2180.2754
44.8200 2229.4557
44.8400 2254.8372
44.8600 2526.4762
44.8800 2266.2648
44.9000 2405.7081
44.9200 2344.3736
44.9400 2495.5689
44.9600 2079.3597
44.9800 2576.5149
